Variables = "x","y", "Velocity_x", "Velocity_y", "Velocity_whole value", "Pressure", "Absolute pressure", "Total pressure"
Zone i=162, j=42
-5.0000000e-001  0.0000000e+000  0.0000000e+000  0.0000000e+000  0.0000000e+000  5.8430600e-001  5.8430600e-001  5.8430600e-001 
-4.9980724e-001  9.8150698e-003  0.0000000e+000  0.0000000e+000  0.0000000e+000  5.8254373e-001  5.8254373e-001  5.8254373e-001 
-4.9903661e-001  2.9429846e-002  0.0000000e+000  0.0000000e+000  0.0000000e+000  5.7901919e-001  5.7901919e-001  5.7901919e-001 
-4.9749649e-001  4.8999012e-002  0.0000000e+000  0.0000000e+000  0.0000000e+000  5.7119012e-001  5.7119012e-001  5.7119012e-001 
-4.9518925e-001  6.8492860e-002  0.0000000e+000  0.0000000e+000  0.0000000e+000  5.5912232e-001  5.5912232e-001  5.5912232e-001 
-4.9211842e-001  8.7881342e-002  0.0000000e+000  0.0000000e+000  0.0000000e+000  5.4291999e-001  5.4291999e-001  5.4291999e-001 
-4.8828882e-001  1.0713406e-001  0.0000000e+000  0.0000000e+000  0.0000000e+000  5.2272415e-001  5.2272415e-001  5.2272415e-001 
-4.8370636e-001  1.2622136e-001  0.0000000e+000  0.0000000e+000  0.0000000e+000  4.9870732e-001  4.9870732e-001  4.9870732e-001 
-4.7837794e-001  1.4511424e-001  0.0000000e+000  0.0000000e+000  0.0000000e+000  4.7107309e-001  4.7107309e-001  4.7107309e-001 
-4.7231191e-001  1.6378364e-001  0.0000000e+000  0.0000000e+000  0.0000000e+000  4.4005370e-001  4.4005370e-001  4.4005370e-001 
-4.6551770e-001  1.8220030e-001  0.0000000e+000  0.0000000e+000  0.0000000e+000  4.0590763e-001  4.0590763e-001  4.0590763e-001 
-4.5800573e-001  2.0033574e-001  0.0000000e+000  0.0000000e+000  0.0000000e+000  3.6892533e-001  3.6892533e-001  3.6892533e-001 
-4.4978741e-001  2.1816251e-001  0.0000000e+000  0.0000000e+000  0.0000000e+000  3.2942384e-001  3.2942384e-001  3.2942384e-001 
-4.4087553e-001  2.3565310e-001  0.0000000e+000  0.0000000e+000  0.0000000e+000  2.8773001e-001  2.8773001e-001  2.8773001e-001 
-4.3128395e-001  2.5278014e-001  0.0000000e+000  0.0000000e+000  0.0000000e+000  2.4418963e-001  2.4418963e-001  2.4418963e-001 
-4.2102742e-001  2.6951718e-001  0.0000000e+000  0.0000000e+000  0.0000000e+000  1.9916888e-001  1.9916888e-001  1.9916888e-001 
-4.1012165e-001  2.8583884e-001  0.0000000e+000  0.0000000e+000  0.0000000e+000  1.5303873e-001  1.5303873e-001  1.5303873e-001 
-3.9858329e-001  3.0171996e-001  0.0000000e+000  0.0000000e+000  0.0000000e+000  1.0617057e-001  1.0617057e-001  1.0617057e-001 
-3.8643056e-001  3.1713563e-001  0.0000000e+000  0.0000000e+000  0.0000000e+000  5.8888108e-002  5.8888108e-002  5.8888108e-002 
-3.7368208e-001  3.3206218e-001  0.0000000e+000  0.0000000e+000  0.0000000e+000  1.1595874e-002  1.1595874e-002  1.1595874e-002 
-3.6035728e-001  3.4647691e-001  0.0000000e+000  0.0000000e+000  0.0000000e+000 -3.5167284e-002 -3.5167284e-002 -3.5167284e-002 
-3.4647670e-001  3.6035752e-001  0.0000000e+000  0.0000000e+000  0.0000000e+000 -8.1269264e-002 -8.1269264e-002 -8.1269264e-002 
-3.3206201e-001  3.7368232e-001  0.0000000e+000  0.0000000e+000  0.0000000e+000 -1.2621939e-001 -1.2621939e-001 -1.2621939e-001 
-3.1713545e-001  3.8643074e-001  0.0000000e+000  0.0000000e+000  0.0000000e+000 -1.6919568e-001 -1.6919568e-001 -1.6919568e-001 
-3.0171975e-001  3.9858350e-001  0.0000000e+000  0.0000000e+000  0.0000000e+000 -2.1113281e-001 -2.1113281e-001 -2.1113281e-001 
-2.8583866e-001  4.1012180e-001  0.0000000e+000  0.0000000e+000  0.0000000e+000 -2.5181144e-001 -2.5181144e-001 -2.5181144e-001 
-2.6951694e-001  4.2102760e-001  0.0000000e+000  0.0000000e+000  0.0000000e+000 -2.8938380e-001 -2.8938380e-001 -2.8938380e-001 
-2.5277984e-001  4.3128410e-001  0.0000000e+000  0.0000000e+000  0.0000000e+000 -3.2417834e-001 -3.2417834e-001 -3.2417834e-001 
-2.3565285e-001  4.4087571e-001  0.0000000e+000  0.0000000e+000  0.0000000e+000 -3.5629895e-001 -3.5629895e-001 -3.5629895e-001 
-2.1816230e-001  4.4978762e-001  0.0000000e+000  0.0000000e+000  0.0000000e+000 -3.8549322e-001 -3.8549322e-001 -3.8549322e-001 
-2.0033550e-001  4.5800579e-001  0.0000000e+000  0.0000000e+000  0.0000000e+000 -4.1150290e-001 -4.1150290e-001 -4.1150290e-001 
-1.8220000e-001  4.6551776e-001  0.0000000e+000  0.0000000e+000  0.0000000e+000 -4.3426591e-001 -4.3426591e-001 -4.3426591e-001 
-1.6378340e-001  4.7231200e-001  0.0000000e+000  0.0000000e+000  0.0000000e+000 -4.5388144e-001 -4.5388144e-001 -4.5388144e-001 
-1.4511400e-001  4.7837806e-001  0.0000000e+000  0.0000000e+000  0.0000000e+000 -4.7027317e-001 -4.7027317e-001 -4.7027317e-001 
-1.2622105e-001  4.8370641e-001  0.0000000e+000  0.0000000e+000  0.0000000e+000 -4.8346797e-001 -4.8346797e-001 -4.8346797e-001 
-1.0713376e-001  4.8828888e-001  0.0000000e+000  0.0000000e+000  0.0000000e+000 -4.9351212e-001 -4.9351212e-001 -4.9351212e-001 
-8.7881044e-002  4.9211848e-001  0.0000000e+000  0.0000000e+000  0.0000000e+000 -5.0051659e-001 -5.0051659e-001 -5.0051659e-001 
-6.8492696e-002  4.9518925e-001  0.0000000e+000  0.0000000e+000  0.0000000e+000 -5.0462919e-001 -5.0462919e-001 -5.0462919e-001 
-4.8998840e-002  4.9749649e-001  0.0000000e+000  0.0000000e+000  0.0000000e+000 -5.0604439e-001 -5.0604439e-001 -5.0604439e-001 
-2.9429436e-002  4.9903661e-001  0.0000000e+000  0.0000000e+000  0.0000000e+000 -5.0498527e-001 -5.0498527e-001 -5.0498527e-001 
-9.8146517e-003  4.9980724e-001  0.0000000e+000  0.0000000e+000  0.0000000e+000 -5.0169861e-001 -5.0169861e-001 -5.0169861e-001 
 9.8152636e-003  4.9980724e-001  0.0000000e+000  0.0000000e+000  0.0000000e+000 -4.9639904e-001 -4.9639904e-001 -4.9639904e-001 
 2.9430045e-002  4.9903661e-001  0.0000000e+000  0.0000000e+000  0.0000000e+000 -4.8932138e-001 -4.8932138e-001 -4.8932138e-001 
 4.8999451e-002  4.9749646e-001  0.0000000e+000  0.0000000e+000  0.0000000e+000 -4.8074806e-001 -4.8074806e-001 -4.8074806e-001 
 6.8493299e-002  4.9518913e-001  0.0000000e+000  0.0000000e+000  0.0000000e+000 -4.7097269e-001 -4.7097269e-001 -4.7097269e-001 
 8.7881535e-002  4.9211836e-001  0.0000000e+000  0.0000000e+000  0.0000000e+000 -4.6030387e-001 -4.6030387e-001 -4.6030387e-001 
 1.0713425e-001  4.8828876e-001  0.0000000e+000  0.0000000e+000  0.0000000e+000 -4.4902968e-001 -4.4902968e-001 -4.4902968e-001 
 1.2622181e-001  4.8370618e-001  0.0000000e+000  0.0000000e+000  0.0000000e+000 -4.3740413e-001 -4.3740413e-001 -4.3740413e-001 
 1.4511469e-001  4.7837785e-001  0.0000000e+000  0.0000000e+000  0.0000000e+000 -4.2564413e-001 -4.2564413e-001 -4.2564413e-001 
 1.6378385e-001  4.7231185e-001  0.0000000e+000  0.0000000e+000  0.0000000e+000 -4.1393951e-001 -4.1393951e-001 -4.1393951e-001 
 1.8220049e-001  4.6551755e-001  0.0000000e+000  0.0000000e+000  0.0000000e+000 -4.0245292e-001 -4.0245292e-001 -4.0245292e-001 
 2.0033616e-001  4.5800549e-001  0.0000000e+000  0.0000000e+000  0.0000000e+000 -3.9131191e-001 -3.9131191e-001 -3.9131191e-001 
 2.1816289e-001  4.4978726e-001  0.0000000e+000  0.0000000e+000  0.0000000e+000 -3.8063481e-001 -3.8063481e-001 -3.8063481e-001 
 2.3565331e-001  4.4087544e-001  0.0000000e+000  0.0000000e+000  0.0000000e+000 -3.7049946e-001 -3.7049946e-001 -3.7049946e-001 
 2.5278032e-001  4.3128383e-001  0.0000000e+000  0.0000000e+000  0.0000000e+000 -3.6096597e-001 -3.6096597e-001 -3.6096597e-001 
 2.6951754e-001  4.2102724e-001  0.0000000e+000  0.0000000e+000  0.0000000e+000 -3.5207653e-001 -3.5207653e-001 -3.5207653e-001 
 2.8583926e-001  4.1012138e-001  0.0000000e+000  0.0000000e+000  0.0000000e+000 -3.4386736e-001 -3.4386736e-001 -3.4386736e-001 
 3.0172014e-001  3.9858320e-001  0.0000000e+000  0.0000000e+000  0.0000000e+000 -3.3636454e-001 -3.3636454e-001 -3.3636454e-001 
 3.1713587e-001  3.8643044e-001  0.0000000e+000  0.0000000e+000  0.0000000e+000 -3.2958946e-001 -3.2958946e-001 -3.2958946e-001 
 3.3206254e-001  3.7368178e-001  0.0000000e+000  0.0000000e+000  0.0000000e+000 -3.2355803e-001 -3.2355803e-001 -3.2355803e-001 
 3.4647721e-001  3.6035699e-001  0.0000000e+000  0.0000000e+000  0.0000000e+000 -3.1826571e-001 -3.1826571e-001 -3.1826571e-001 
 3.6035764e-001  3.4647655e-001  0.0000000e+000  0.0000000e+000  0.0000000e+000 -3.1369463e-001 -3.1369463e-001 -3.1369463e-001 
 3.7368244e-001  3.3206183e-001  0.0000000e+000  0.0000000e+000  0.0000000e+000 -3.0995065e-001 -3.0995065e-001 -3.0995065e-001 
 3.8643104e-001  3.1713516e-001  0.0000000e+000  0.0000000e+000  0.0000000e+000 -3.0689389e-001 -3.0689389e-001 -3.0689389e-001 
 3.9858380e-001  3.0171940e-001  0.0000000e+000  0.0000000e+000  0.0000000e+000 -3.0449724e-001 -3.0449724e-001 -3.0449724e-001 
 4.1012195e-001  2.8583845e-001  0.0000000e+000  0.0000000e+000  0.0000000e+000 -3.0271319e-001 -3.0271319e-001 -3.0271319e-001 
 4.2102772e-001  2.6951680e-001  0.0000000e+000  0.0000000e+000  0.0000000e+000 -3.0147326e-001 -3.0147326e-001 -3.0147326e-001 
 4.3128431e-001  2.5277954e-001  0.0000000e+000  0.0000000e+000  0.0000000e+000 -3.0069807e-001 -3.0069807e-001 -3.0069807e-001 
 4.4087589e-001  2.3565251e-001  0.0000000e+000  0.0000000e+000  0.0000000e+000 -3.0033842e-001 -3.0033842e-001 -3.0033842e-001 
 4.4978765e-001  2.1816209e-001  0.0000000e+000  0.0000000e+000  0.0000000e+000 -3.0030033e-001 -3.0030033e-001 -3.0030033e-001 
 4.5800591e-001  2.0033529e-001  0.0000000e+000  0.0000000e+000  0.0000000e+000 -3.0052936e-001 -3.0052936e-001 -3.0052936e-001 
 4.6551794e-001  1.8219960e-001  0.0000000e+000  0.0000000e+000  0.0000000e+000 -3.0098426e-001 -3.0098426e-001 -3.0098426e-001 
 4.7231215e-001  1.6378300e-001  0.0000000e+000  0.0000000e+000  0.0000000e+000 -3.0163869e-001 -3.0163869e-001 -3.0163869e-001 
 4.7837809e-001  1.4511386e-001  0.0000000e+000  0.0000000e+000  0.0000000e+000 -3.0248427e-001 -3.0248427e-001 -3.0248427e-001 
 4.8370644e-001  1.2622090e-001  0.0000000e+000  0.0000000e+000  0.0000000e+000 -3.0353296e-001 -3.0353296e-001 -3.0353296e-001 
 4.8828891e-001  1.0713334e-001  0.0000000e+000  0.0000000e+000  0.0000000e+000 -3.0481395e-001 -3.0481395e-001 -3.0481395e-001 
 4.9211851e-001  8.7880611e-002  0.0000000e+000  0.0000000e+000  0.0000000e+000 -3.0636939e-001 -3.0636939e-001 -3.0636939e-001 
 4.9518931e-001  6.8492368e-002  0.0000000e+000  0.0000000e+000  0.0000000e+000 -3.0825007e-001 -3.0825007e-001 -3.0825007e-001 
 4.9749649e-001  4.8998520e-002  0.0000000e+000  0.0000000e+000  0.0000000e+000 -3.1051117e-001 -3.1051117e-001 -3.1051117e-001 
 4.9903661e-001  2.9429115e-002  0.0000000e+000  0.0000000e+000  0.0000000e+000 -3.1320542e-001 -3.1320542e-001 -3.1320542e-001 
 4.9980724e-001  9.8146452e-003  0.0000000e+000  0.0000000e+000  0.0000000e+000 -3.1637895e-001 -3.1637895e-001 -3.1637895e-001 
 4.9980724e-001 -9.8149152e-003  0.0000000e+000  0.0000000e+000  0.0000000e+000 -3.2006693e-001 -3.2006693e-001 -3.2006693e-001 
 4.9903661e-001 -2.9429652e-002  0.0000000e+000  0.0000000e+000  0.0000000e+000 -3.2428709e-001 -3.2428709e-001 -3.2428709e-001 
 4.9749646e-001 -4.8999056e-002  0.0000000e+000  0.0000000e+000  0.0000000e+000 -3.2903102e-001 -3.2903102e-001 -3.2903102e-001 
 4.9518919e-001 -6.8492912e-002  0.0000000e+000  0.0000000e+000  0.0000000e+000 -3.3427447e-001 -3.3427447e-001 -3.3427447e-001 
 4.9211848e-001 -8.7881148e-002  0.0000000e+000  0.0000000e+000  0.0000000e+000 -3.3998010e-001 -3.3998010e-001 -3.3998010e-001 
 4.8828888e-001 -1.0713386e-001  0.0000000e+000  0.0000000e+000  0.0000000e+000 -3.4608492e-001 -3.4608492e-001 -3.4608492e-001 
 4.8370630e-001 -1.2622139e-001  0.0000000e+000  0.0000000e+000  0.0000000e+000 -3.5250825e-001 -3.5250825e-001 -3.5250825e-001 
 4.7837794e-001 -1.4511435e-001  0.0000000e+000  0.0000000e+000  0.0000000e+000 -3.5915735e-001 -3.5915735e-001 -3.5915735e-001 
 4.7231200e-001 -1.6378349e-001  0.0000000e+000  0.0000000e+000  0.0000000e+000 -3.6593464e-001 -3.6593464e-001 -3.6593464e-001 
 4.6551776e-001 -1.8220010e-001  0.0000000e+000  0.0000000e+000  0.0000000e+000 -3.7274456e-001 -3.7274456e-001 -3.7274456e-001 
 4.5800573e-001 -2.0033580e-001  0.0000000e+000  0.0000000e+000  0.0000000e+000 -3.7949976e-001 -3.7949976e-001 -3.7949976e-001 
 4.4978744e-001 -2.1816260e-001  0.0000000e+000  0.0000000e+000  0.0000000e+000 -3.8612235e-001 -3.8612235e-001 -3.8612235e-001 
 4.4087565e-001 -2.3565295e-001  0.0000000e+000  0.0000000e+000  0.0000000e+000 -3.9255798e-001 -3.9255798e-001 -3.9255798e-001 
 4.3128407e-001 -2.5277996e-001  0.0000000e+000  0.0000000e+000  0.0000000e+000 -3.9877477e-001 -3.9877477e-001 -3.9877477e-001 
 4.2102745e-001 -2.6951724e-001  0.0000000e+000  0.0000000e+000  0.0000000e+000 -4.0476921e-001 -4.0476921e-001 -4.0476921e-001 
 4.1012165e-001 -2.8583896e-001  0.0000000e+000  0.0000000e+000  0.0000000e+000 -4.1056472e-001 -4.1056472e-001 -4.1056472e-001 
 3.9858347e-001 -3.0171984e-001  0.0000000e+000  0.0000000e+000  0.0000000e+000 -4.1621009e-001 -4.1621009e-001 -4.1621009e-001 
 3.8643065e-001 -3.1713557e-001  0.0000000e+000  0.0000000e+000  0.0000000e+000 -4.2177710e-001 -4.2177710e-001 -4.2177710e-001 
 3.7368205e-001 -3.3206224e-001  0.0000000e+000  0.0000000e+000  0.0000000e+000 -4.2735651e-001 -4.2735651e-001 -4.2735651e-001 
 3.6035725e-001 -3.4647691e-001  0.0000000e+000  0.0000000e+000  0.0000000e+000 -4.3305331e-001 -4.3305331e-001 -4.3305331e-001 
 3.4647679e-001 -3.6035734e-001  0.0000000e+000  0.0000000e+000  0.0000000e+000 -4.3897805e-001 -4.3897805e-001 -4.3897805e-001 
 3.3206213e-001 -3.7368214e-001  0.0000000e+000  0.0000000e+000  0.0000000e+000 -4.4523570e-001 -4.4523570e-001 -4.4523570e-001 
 3.1713545e-001 -3.8643074e-001  0.0000000e+000  0.0000000e+000  0.0000000e+000 -4.5191962e-001 -4.5191962e-001 -4.5191962e-001 
 3.0171970e-001 -3.9858353e-001  0.0000000e+000  0.0000000e+000  0.0000000e+000 -4.5910457e-001 -4.5910457e-001 -4.5910457e-001 
 2.8583875e-001 -4.1012174e-001  0.0000000e+000  0.0000000e+000  0.0000000e+000 -4.6684512e-001 -4.6684512e-001 -4.6684512e-001 
 2.6951712e-001 -4.2102748e-001  0.0000000e+000  0.0000000e+000  0.0000000e+000 -4.7516707e-001 -4.7516707e-001 -4.7516707e-001 
 2.5277984e-001 -4.3128410e-001  0.0000000e+000  0.0000000e+000  0.0000000e+000 -4.8407045e-001 -4.8407045e-001 -4.8407045e-001 
 2.3565289e-001 -4.4087565e-001  0.0000000e+000  0.0000000e+000  0.0000000e+000 -4.9353895e-001 -4.9353895e-001 -4.9353895e-001 
 2.1816251e-001 -4.4978741e-001  0.0000000e+000  0.0000000e+000  0.0000000e+000 -5.0354153e-001 -5.0354153e-001 -5.0354153e-001 
 2.0033574e-001 -4.5800567e-001  0.0000000e+000  0.0000000e+000  0.0000000e+000 -5.1398098e-001 -5.1398098e-001 -5.1398098e-001 
 1.8220019e-001 -4.6551764e-001  0.0000000e+000  0.0000000e+000  0.0000000e+000 -5.2475572e-001 -5.2475572e-001 -5.2475572e-001 
 1.6378361e-001 -4.7231191e-001  0.0000000e+000  0.0000000e+000  0.0000000e+000 -5.3571784e-001 -5.3571784e-001 -5.3571784e-001 
 1.4511456e-001 -4.7837785e-001  0.0000000e+000  0.0000000e+000  0.0000000e+000 -5.4672700e-001 -5.4672700e-001 -5.4672700e-001 
 1.2622175e-001 -4.8370618e-001  0.0000000e+000  0.0000000e+000  0.0000000e+000 -5.5759645e-001 -5.5759645e-001 -5.5759645e-001 
 1.0713422e-001 -4.8828876e-001  0.0000000e+000  0.0000000e+000  0.0000000e+000 -5.6810170e-001 -5.6810170e-001 -5.6810170e-001 
 8.7881476e-002 -4.9211836e-001  0.0000000e+000  0.0000000e+000  0.0000000e+000 -5.7801169e-001 -5.7801169e-001 -5.7801169e-001 
 6.8493240e-002 -4.9518913e-001  0.0000000e+000  0.0000000e+000  0.0000000e+000 -5.8705056e-001 -5.8705056e-001 -5.8705056e-001 
 4.8999503e-002 -4.9749640e-001  0.0000000e+000  0.0000000e+000  0.0000000e+000 -5.9491771e-001 -5.9491771e-001 -5.9491771e-001 
 2.9430222e-002 -4.9903655e-001  0.0000000e+000  0.0000000e+000  0.0000000e+000 -6.0132545e-001 -6.0132545e-001 -6.0132545e-001 
 9.8154414e-003 -4.9980724e-001  0.0000000e+000  0.0000000e+000  0.0000000e+000 -6.0599738e-001 -6.0599738e-001 -6.0599738e-001 
-9.8143592e-003 -4.9980724e-001  0.0000000e+000  0.0000000e+000  0.0000000e+000 -6.0869831e-001 -6.0869831e-001 -6.0869831e-001 
-2.9429026e-002 -4.9903661e-001  0.0000000e+000  0.0000000e+000  0.0000000e+000 -6.0921735e-001 -6.0921735e-001 -6.0921735e-001 
-4.8998430e-002 -4.9749649e-001  0.0000000e+000  0.0000000e+000  0.0000000e+000 -6.0731816e-001 -6.0731816e-001 -6.0731816e-001 
-6.8492278e-002 -4.9518931e-001  0.0000000e+000  0.0000000e+000  0.0000000e+000 -6.0276353e-001 -6.0276353e-001 -6.0276353e-001 
-8.7880522e-002 -4.9211854e-001  0.0000000e+000  0.0000000e+000  0.0000000e+000 -5.9535813e-001 -5.9535813e-001 -5.9535813e-001 
-1.0713315e-001 -4.8828900e-001  0.0000000e+000  0.0000000e+000  0.0000000e+000 -5.8494031e-001 -5.8494031e-001 -5.8494031e-001 
-1.2622060e-001 -4.8370653e-001  0.0000000e+000  0.0000000e+000  0.0000000e+000 -5.7138997e-001 -5.7138997e-001 -5.7138997e-001 
-1.4511356e-001 -4.7837821e-001  0.0000000e+000  0.0000000e+000  0.0000000e+000 -5.5462760e-001 -5.5462760e-001 -5.5462760e-001 
-1.6378260e-001 -4.7231230e-001  0.0000000e+000  0.0000000e+000  0.0000000e+000 -5.3461874e-001 -5.3461874e-001 -5.3461874e-001 
-1.8219909e-001 -4.6551815e-001  0.0000000e+000  0.0000000e+000  0.0000000e+000 -5.1142126e-001 -5.1142126e-001 -5.1142126e-001 
-2.0033480e-001 -4.5800614e-001  0.0000000e+000  0.0000000e+000  0.0000000e+000 -4.8493952e-001 -4.8493952e-001 -4.8493952e-001 
-2.1816149e-001 -4.4978797e-001  0.0000000e+000  0.0000000e+000  0.0000000e+000 -4.5524764e-001 -4.5524764e-001 -4.5524764e-001 
-2.3565179e-001 -4.4087631e-001  0.0000000e+000  0.0000000e+000  0.0000000e+000 -4.2247292e-001 -4.2247292e-001 -4.2247292e-001 
-2.5277880e-001 -4.3128473e-001  0.0000000e+000  0.0000000e+000  0.0000000e+000 -3.8678256e-001 -3.8678256e-001 -3.8678256e-001 
-2.6951596e-001 -4.2102826e-001  0.0000000e+000  0.0000000e+000  0.0000000e+000 -3.4818047e-001 -3.4818047e-001 -3.4818047e-001 
-2.8583750e-001 -4.1012260e-001  0.0000000e+000  0.0000000e+000  0.0000000e+000 -3.0698237e-001 -3.0698237e-001 -3.0698237e-001 
-3.0171841e-001 -3.9858454e-001  0.0000000e+000  0.0000000e+000  0.0000000e+000 -2.6280290e-001 -2.6280290e-001 -2.6280290e-001 
-3.1713414e-001 -3.8643187e-001  0.0000000e+000  0.0000000e+000  0.0000000e+000 -2.1838377e-001 -2.1838377e-001 -2.1838377e-001 
-3.3206081e-001 -3.7368333e-001  0.0000000e+000  0.0000000e+000  0.0000000e+000 -1.7213844e-001 -1.7213844e-001 -1.7213844e-001 
-3.4647539e-001 -3.6035874e-001  0.0000000e+000  0.0000000e+000  0.0000000e+000 -1.2412280e-001 -1.2412280e-001 -1.2412280e-001 
-3.6035585e-001 -3.4647846e-001  0.0000000e+000  0.0000000e+000  0.0000000e+000 -7.5105503e-002 -7.5105503e-002 -7.5105503e-002 
-3.7368065e-001 -3.3206391e-001  0.0000000e+000  0.0000000e+000  0.0000000e+000 -2.5524627e-002 -2.5524627e-002 -2.5524627e-002 
-3.8642925e-001 -3.1713736e-001  0.0000000e+000  0.0000000e+000  0.0000000e+000  2.4488090e-002  2.4488090e-002  2.4488090e-002 
-3.9858201e-001 -3.0172181e-001  0.0000000e+000  0.0000000e+000  0.0000000e+000  7.4387014e-002  7.4387014e-002  7.4387014e-002 
-4.1012016e-001 -2.8584099e-001  0.0000000e+000  0.0000000e+000  0.0000000e+000  1.2376658e-001  1.2376658e-001  1.2376658e-001 
-4.2102593e-001 -2.6951951e-001  0.0000000e+000  0.0000000e+000  0.0000000e+000  1.7230693e-001  1.7230693e-001  1.7230693e-001 
-4.3128258e-001 -2.5278240e-001  0.0000000e+000  0.0000000e+000  0.0000000e+000  2.1964373e-001  2.1964373e-001  2.1964373e-001 
-4.4087425e-001 -2.3565550e-001  0.0000000e+000  0.0000000e+000  0.0000000e+000  2.6540560e-001  2.6540560e-001  2.6540560e-001 
-4.4978610e-001 -2.1816531e-001  0.0000000e+000  0.0000000e+000  0.0000000e+000  3.0923516e-001  3.0923516e-001  3.0923516e-001 
-4.5800442e-001 -2.0033869e-001  0.0000000e+000  0.0000000e+000  0.0000000e+000  3.5079104e-001  3.5079104e-001  3.5079104e-001 
-4.6551651e-001 -1.8220320e-001  0.0000000e+000  0.0000000e+000  0.0000000e+000  3.8973865e-001  3.8973865e-001  3.8973865e-001 
-4.7231084e-001 -1.6378674e-001  0.0000000e+000  0.0000000e+000  0.0000000e+000  4.2577606e-001  4.2577606e-001  4.2577606e-001 
