Variables = "x","y", "Velocity_x", "Velocity_y", "Velocity_whole value", "Pressure", "Absolute pressure", "Total pressure"
Zone i=162, j=42
-5.0000000e-001  0.0000000e+000  0.0000000e+000  0.0000000e+000  0.0000000e+000  5.8464885e-001  5.8464885e-001  5.8464885e-001 
-4.9980724e-001  9.8150698e-003  0.0000000e+000  0.0000000e+000  0.0000000e+000  5.8340728e-001  5.8340728e-001  5.8340728e-001 
-4.9903661e-001  2.9429846e-002  0.0000000e+000  0.0000000e+000  0.0000000e+000  5.8092421e-001  5.8092421e-001  5.8092421e-001 
-4.9749649e-001  4.8999012e-002  0.0000000e+000  0.0000000e+000  0.0000000e+000  5.7414806e-001  5.7414806e-001  5.7414806e-001 
-4.9518925e-001  6.8492860e-002  0.0000000e+000  0.0000000e+000  0.0000000e+000  5.6312579e-001  5.6312579e-001  5.6312579e-001 
-4.9211842e-001  8.7881342e-002  0.0000000e+000  0.0000000e+000  0.0000000e+000  5.4795170e-001  5.4795170e-001  5.4795170e-001 
-4.8828882e-001  1.0713406e-001  0.0000000e+000  0.0000000e+000  0.0000000e+000  5.2876186e-001  5.2876186e-001  5.2876186e-001 
-4.8370636e-001  1.2622136e-001  0.0000000e+000  0.0000000e+000  0.0000000e+000  5.0572467e-001  5.0572467e-001  5.0572467e-001 
-4.7837794e-001  1.4511424e-001  0.0000000e+000  0.0000000e+000  0.0000000e+000  4.7903869e-001  4.7903869e-001  4.7903869e-001 
-4.7231191e-001  1.6378364e-001  0.0000000e+000  0.0000000e+000  0.0000000e+000  4.4893178e-001  4.4893178e-001  4.4893178e-001 
-4.6551770e-001  1.8220030e-001  0.0000000e+000  0.0000000e+000  0.0000000e+000  4.1565737e-001  4.1565737e-001  4.1565737e-001 
-4.5800573e-001  2.0033574e-001  0.0000000e+000  0.0000000e+000  0.0000000e+000  3.7949494e-001  3.7949494e-001  3.7949494e-001 
-4.4978741e-001  2.1816251e-001  0.0000000e+000  0.0000000e+000  0.0000000e+000  3.4075490e-001  3.4075490e-001  3.4075490e-001 
-4.4087553e-001  2.3565310e-001  0.0000000e+000  0.0000000e+000  0.0000000e+000  2.9976603e-001  2.9976603e-001  2.9976603e-001 
-4.3128395e-001  2.5278014e-001  0.0000000e+000  0.0000000e+000  0.0000000e+000  2.5687119e-001  2.5687119e-001  2.5687119e-001 
-4.2102742e-001  2.6951718e-001  0.0000000e+000  0.0000000e+000  0.0000000e+000  2.1242934e-001  2.1242934e-001  2.1242934e-001 
-4.1012165e-001  2.8583884e-001  0.0000000e+000  0.0000000e+000  0.0000000e+000  1.6680618e-001  1.6680618e-001  1.6680618e-001 
-3.9858329e-001  3.0171996e-001  0.0000000e+000  0.0000000e+000  0.0000000e+000  1.2036765e-001  1.2036765e-001  1.2036765e-001 
-3.8643056e-001  3.1713563e-001  0.0000000e+000  0.0000000e+000  0.0000000e+000  7.3434658e-002  7.3434658e-002  7.3434658e-002 
-3.7368208e-001  3.3206218e-001  0.0000000e+000  0.0000000e+000  0.0000000e+000  2.6405098e-002  2.6405098e-002  2.6405098e-002 
-3.6035728e-001  3.4647691e-001  0.0000000e+000  0.0000000e+000  0.0000000e+000 -2.0191830e-002 -2.0191830e-002 -2.0191830e-002 
-3.4647670e-001  3.6035752e-001  0.0000000e+000  0.0000000e+000  0.0000000e+000 -6.6215776e-002 -6.6215776e-002 -6.6215776e-002 
-3.3206201e-001  3.7368232e-001  0.0000000e+000  0.0000000e+000  0.0000000e+000 -1.1123524e-001 -1.1123524e-001 -1.1123524e-001 
-3.1713545e-001  3.8643074e-001  0.0000000e+000  0.0000000e+000  0.0000000e+000 -1.5448549e-001 -1.5448549e-001 -1.5448549e-001 
-3.0171975e-001  3.9858350e-001  0.0000000e+000  0.0000000e+000  0.0000000e+000 -1.9630428e-001 -1.9630428e-001 -1.9630428e-001 
-2.8583866e-001  4.1012180e-001  0.0000000e+000  0.0000000e+000  0.0000000e+000 -2.3747399e-001 -2.3747399e-001 -2.3747399e-001 
-2.6951694e-001  4.2102760e-001  0.0000000e+000  0.0000000e+000  0.0000000e+000 -2.7549079e-001 -2.7549079e-001 -2.7549079e-001 
-2.5277984e-001  4.3128410e-001  0.0000000e+000  0.0000000e+000  0.0000000e+000 -3.1093287e-001 -3.1093287e-001 -3.1093287e-001 
-2.3565285e-001  4.4087571e-001  0.0000000e+000  0.0000000e+000  0.0000000e+000 -3.4375980e-001 -3.4375980e-001 -3.4375980e-001 
-2.1816230e-001  4.4978762e-001  0.0000000e+000  0.0000000e+000  0.0000000e+000 -3.7376294e-001 -3.7376294e-001 -3.7376294e-001 
-2.0033550e-001  4.5800579e-001  0.0000000e+000  0.0000000e+000  0.0000000e+000 -4.0072939e-001 -4.0072939e-001 -4.0072939e-001 
-1.8220000e-001  4.6551776e-001  0.0000000e+000  0.0000000e+000  0.0000000e+000 -4.2457569e-001 -4.2457569e-001 -4.2457569e-001 
-1.6378340e-001  4.7231200e-001  0.0000000e+000  0.0000000e+000  0.0000000e+000 -4.4532147e-001 -4.4532147e-001 -4.4532147e-001 
-1.4511400e-001  4.7837806e-001  0.0000000e+000  0.0000000e+000  0.0000000e+000 -4.6297485e-001 -4.6297485e-001 -4.6297485e-001 
-1.2622105e-001  4.8370641e-001  0.0000000e+000  0.0000000e+000  0.0000000e+000 -4.7753596e-001 -4.7753596e-001 -4.7753596e-001 
-1.0713376e-001  4.8828888e-001  0.0000000e+000  0.0000000e+000  0.0000000e+000 -4.8903328e-001 -4.8903328e-001 -4.8903328e-001 
-8.7881044e-002  4.9211848e-001  0.0000000e+000  0.0000000e+000  0.0000000e+000 -4.9756962e-001 -4.9756962e-001 -4.9756962e-001 
-6.8492696e-002  4.9518925e-001  0.0000000e+000  0.0000000e+000  0.0000000e+000 -5.0328392e-001 -5.0328392e-001 -5.0328392e-001 
-4.8998840e-002  4.9749649e-001  0.0000000e+000  0.0000000e+000  0.0000000e+000 -5.0635880e-001 -5.0635880e-001 -5.0635880e-001 
-2.9429436e-002  4.9903661e-001  0.0000000e+000  0.0000000e+000  0.0000000e+000 -5.0700140e-001 -5.0700140e-001 -5.0700140e-001 
-9.8146517e-003  4.9980724e-001  0.0000000e+000  0.0000000e+000  0.0000000e+000 -5.0545257e-001 -5.0545257e-001 -5.0545257e-001 
 9.8152636e-003  4.9980724e-001  0.0000000e+000  0.0000000e+000  0.0000000e+000 -5.0193036e-001 -5.0193036e-001 -5.0193036e-001 
 2.9430045e-002  4.9903661e-001  0.0000000e+000  0.0000000e+000  0.0000000e+000 -4.9665365e-001 -4.9665365e-001 -4.9665365e-001 
 4.8999451e-002  4.9749646e-001  0.0000000e+000  0.0000000e+000  0.0000000e+000 -4.8987538e-001 -4.8987538e-001 -4.8987538e-001 
 6.8493299e-002  4.9518913e-001  0.0000000e+000  0.0000000e+000  0.0000000e+000 -4.8186859e-001 -4.8186859e-001 -4.8186859e-001 
 8.7881535e-002  4.9211836e-001  0.0000000e+000  0.0000000e+000  0.0000000e+000 -4.7292274e-001 -4.7292274e-001 -4.7292274e-001 
 1.0713425e-001  4.8828876e-001  0.0000000e+000  0.0000000e+000  0.0000000e+000 -4.6331832e-001 -4.6331832e-001 -4.6331832e-001 
 1.2622181e-001  4.8370618e-001  0.0000000e+000  0.0000000e+000  0.0000000e+000 -4.5330280e-001 -4.5330280e-001 -4.5330280e-001 
 1.4511469e-001  4.7837785e-001  0.0000000e+000  0.0000000e+000  0.0000000e+000 -4.4307902e-001 -4.4307902e-001 -4.4307902e-001 
 1.6378385e-001  4.7231185e-001  0.0000000e+000  0.0000000e+000  0.0000000e+000 -4.3283641e-001 -4.3283641e-001 -4.3283641e-001 
 1.8220049e-001  4.6551755e-001  0.0000000e+000  0.0000000e+000  0.0000000e+000 -4.2273176e-001 -4.2273176e-001 -4.2273176e-001 
 2.0033616e-001  4.5800549e-001  0.0000000e+000  0.0000000e+000  0.0000000e+000 -4.1287971e-001 -4.1287971e-001 -4.1287971e-001 
 2.1816289e-001  4.4978726e-001  0.0000000e+000  0.0000000e+000  0.0000000e+000 -4.0338853e-001 -4.0338853e-001 -4.0338853e-001 
 2.3565331e-001  4.4087544e-001  0.0000000e+000  0.0000000e+000  0.0000000e+000 -3.9432183e-001 -3.9432183e-001 -3.9432183e-001 
 2.5278032e-001  4.3128383e-001  0.0000000e+000  0.0000000e+000  0.0000000e+000 -3.8572276e-001 -3.8572276e-001 -3.8572276e-001 
 2.6951754e-001  4.2102724e-001  0.0000000e+000  0.0000000e+000  0.0000000e+000 -3.7760583e-001 -3.7760583e-001 -3.7760583e-001 
 2.8583926e-001  4.1012138e-001  0.0000000e+000  0.0000000e+000  0.0000000e+000 -3.6996219e-001 -3.6996219e-001 -3.6996219e-001 
 3.0172014e-001  3.9858320e-001  0.0000000e+000  0.0000000e+000  0.0000000e+000 -3.6277479e-001 -3.6277479e-001 -3.6277479e-001 
 3.1713587e-001  3.8643044e-001  0.0000000e+000  0.0000000e+000  0.0000000e+000 -3.5602048e-001 -3.5602048e-001 -3.5602048e-001 
 3.3206254e-001  3.7368178e-001  0.0000000e+000  0.0000000e+000  0.0000000e+000 -3.4966883e-001 -3.4966883e-001 -3.4966883e-001 
 3.4647721e-001  3.6035699e-001  0.0000000e+000  0.0000000e+000  0.0000000e+000 -3.4369224e-001 -3.4369224e-001 -3.4369224e-001 
 3.6035764e-001  3.4647655e-001  0.0000000e+000  0.0000000e+000  0.0000000e+000 -3.3806780e-001 -3.3806780e-001 -3.3806780e-001 
 3.7368244e-001  3.3206183e-001  0.0000000e+000  0.0000000e+000  0.0000000e+000 -3.3278224e-001 -3.3278224e-001 -3.3278224e-001 
 3.8643104e-001  3.1713516e-001  0.0000000e+000  0.0000000e+000  0.0000000e+000 -3.2786903e-001 -3.2786903e-001 -3.2786903e-001 
 3.9858380e-001  3.0171940e-001  0.0000000e+000  0.0000000e+000  0.0000000e+000 -3.2331944e-001 -3.2331944e-001 -3.2331944e-001 
 4.1012195e-001  2.8583845e-001  0.0000000e+000  0.0000000e+000  0.0000000e+000 -3.1916478e-001 -3.1916478e-001 -3.1916478e-001 
 4.2102772e-001  2.6951680e-001  0.0000000e+000  0.0000000e+000  0.0000000e+000 -3.1544337e-001 -3.1544337e-001 -3.1544337e-001 
 4.3128431e-001  2.5277954e-001  0.0000000e+000  0.0000000e+000  0.0000000e+000 -3.1220698e-001 -3.1220698e-001 -3.1220698e-001 
 4.4087589e-001  2.3565251e-001  0.0000000e+000  0.0000000e+000  0.0000000e+000 -3.0950829e-001 -3.0950829e-001 -3.0950829e-001 
 4.4978765e-001  2.1816209e-001  0.0000000e+000  0.0000000e+000  0.0000000e+000 -3.0739799e-001 -3.0739799e-001 -3.0739799e-001 
 4.5800591e-001  2.0033529e-001  0.0000000e+000  0.0000000e+000  0.0000000e+000 -3.0592322e-001 -3.0592322e-001 -3.0592322e-001 
 4.6551794e-001  1.8219960e-001  0.0000000e+000  0.0000000e+000  0.0000000e+000 -3.0512375e-001 -3.0512375e-001 -3.0512375e-001 
 4.7231215e-001  1.6378300e-001  0.0000000e+000  0.0000000e+000  0.0000000e+000 -3.0502880e-001 -3.0502880e-001 -3.0502880e-001 
 4.7837809e-001  1.4511386e-001  0.0000000e+000  0.0000000e+000  0.0000000e+000 -3.0565575e-001 -3.0565575e-001 -3.0565575e-001 
 4.8370644e-001  1.2622090e-001  0.0000000e+000  0.0000000e+000  0.0000000e+000 -3.0700761e-001 -3.0700761e-001 -3.0700761e-001 
 4.8828891e-001  1.0713334e-001  0.0000000e+000  0.0000000e+000  0.0000000e+000 -3.0907124e-001 -3.0907124e-001 -3.0907124e-001 
 4.9211851e-001  8.7880611e-002  0.0000000e+000  0.0000000e+000  0.0000000e+000 -3.1181747e-001 -3.1181747e-001 -3.1181747e-001 
 4.9518931e-001  6.8492368e-002  0.0000000e+000  0.0000000e+000  0.0000000e+000 -3.1520158e-001 -3.1520158e-001 -3.1520158e-001 
 4.9749649e-001  4.8998520e-002  0.0000000e+000  0.0000000e+000  0.0000000e+000 -3.1915769e-001 -3.1915769e-001 -3.1915769e-001 
 4.9903661e-001  2.9429115e-002  0.0000000e+000  0.0000000e+000  0.0000000e+000 -3.2360619e-001 -3.2360619e-001 -3.2360619e-001 
 4.9980724e-001  9.8146452e-003  0.0000000e+000  0.0000000e+000  0.0000000e+000 -3.2845345e-001 -3.2845345e-001 -3.2845345e-001 
 4.9980724e-001 -9.8149152e-003  0.0000000e+000  0.0000000e+000  0.0000000e+000 -3.3359545e-001 -3.3359545e-001 -3.3359545e-001 
 4.9903661e-001 -2.9429652e-002  0.0000000e+000  0.0000000e+000  0.0000000e+000 -3.3892074e-001 -3.3892074e-001 -3.3892074e-001 
 4.9749646e-001 -4.8999056e-002  0.0000000e+000  0.0000000e+000  0.0000000e+000 -3.4431678e-001 -3.4431678e-001 -3.4431678e-001 
 4.9518919e-001 -6.8492912e-002  0.0000000e+000  0.0000000e+000  0.0000000e+000 -3.4967315e-001 -3.4967315e-001 -3.4967315e-001 
 4.9211848e-001 -8.7881148e-002  0.0000000e+000  0.0000000e+000  0.0000000e+000 -3.5487503e-001 -3.5487503e-001 -3.5487503e-001 
 4.8828888e-001 -1.0713386e-001  0.0000000e+000  0.0000000e+000  0.0000000e+000 -3.5985312e-001 -3.5985312e-001 -3.5985312e-001 
 4.8370630e-001 -1.2622139e-001  0.0000000e+000  0.0000000e+000  0.0000000e+000 -3.6451510e-001 -3.6451510e-001 -3.6451510e-001 
 4.7837794e-001 -1.4511435e-001  0.0000000e+000  0.0000000e+000  0.0000000e+000 -3.6880833e-001 -3.6880833e-001 -3.6880833e-001 
 4.7231200e-001 -1.6378349e-001  0.0000000e+000  0.0000000e+000  0.0000000e+000 -3.7270457e-001 -3.7270457e-001 -3.7270457e-001 
 4.6551776e-001 -1.8220010e-001  0.0000000e+000  0.0000000e+000  0.0000000e+000 -3.7620145e-001 -3.7620145e-001 -3.7620145e-001 
 4.5800573e-001 -2.0033580e-001  0.0000000e+000  0.0000000e+000  0.0000000e+000 -3.7932369e-001 -3.7932369e-001 -3.7932369e-001 
 4.4978744e-001 -2.1816260e-001  0.0000000e+000  0.0000000e+000  0.0000000e+000 -3.8212118e-001 -3.8212118e-001 -3.8212118e-001 
 4.4087565e-001 -2.3565295e-001  0.0000000e+000  0.0000000e+000  0.0000000e+000 -3.8466907e-001 -3.8466907e-001 -3.8466907e-001 
 4.3128407e-001 -2.5277996e-001  0.0000000e+000  0.0000000e+000  0.0000000e+000 -3.8706502e-001 -3.8706502e-001 -3.8706502e-001 
 4.2102745e-001 -2.6951724e-001  0.0000000e+000  0.0000000e+000  0.0000000e+000 -3.8942564e-001 -3.8942564e-001 -3.8942564e-001 
 4.1012165e-001 -2.8583896e-001  0.0000000e+000  0.0000000e+000  0.0000000e+000 -3.9188707e-001 -3.9188707e-001 -3.9188707e-001 
 3.9858347e-001 -3.0171984e-001  0.0000000e+000  0.0000000e+000  0.0000000e+000 -3.9459023e-001 -3.9459023e-001 -3.9459023e-001 
 3.8643065e-001 -3.1713557e-001  0.0000000e+000  0.0000000e+000  0.0000000e+000 -3.9767361e-001 -3.9767361e-001 -3.9767361e-001 
 3.7368205e-001 -3.3206224e-001  0.0000000e+000  0.0000000e+000  0.0000000e+000 -4.0126708e-001 -4.0126708e-001 -4.0126708e-001 
 3.6035725e-001 -3.4647691e-001  0.0000000e+000  0.0000000e+000  0.0000000e+000 -4.0548411e-001 -4.0548411e-001 -4.0548411e-001 
 3.4647679e-001 -3.6035734e-001  0.0000000e+000  0.0000000e+000  0.0000000e+000 -4.1041738e-001 -4.1041738e-001 -4.1041738e-001 
 3.3206213e-001 -3.7368214e-001  0.0000000e+000  0.0000000e+000  0.0000000e+000 -4.1613695e-001 -4.1613695e-001 -4.1613695e-001 
 3.1713545e-001 -3.8643074e-001  0.0000000e+000  0.0000000e+000  0.0000000e+000 -4.2268291e-001 -4.2268291e-001 -4.2268291e-001 
 3.0171970e-001 -3.9858353e-001  0.0000000e+000  0.0000000e+000  0.0000000e+000 -4.3006730e-001 -4.3006730e-001 -4.3006730e-001 
 2.8583875e-001 -4.1012174e-001  0.0000000e+000  0.0000000e+000  0.0000000e+000 -4.3828517e-001 -4.3828517e-001 -4.3828517e-001 
 2.6951712e-001 -4.2102748e-001  0.0000000e+000  0.0000000e+000  0.0000000e+000 -4.4731158e-001 -4.4731158e-001 -4.4731158e-001 
 2.5277984e-001 -4.3128410e-001  0.0000000e+000  0.0000000e+000  0.0000000e+000 -4.5710409e-001 -4.5710409e-001 -4.5710409e-001 
 2.3565289e-001 -4.4087565e-001  0.0000000e+000  0.0000000e+000  0.0000000e+000 -4.6760824e-001 -4.6760824e-001 -4.6760824e-001 
 2.1816251e-001 -4.4978741e-001  0.0000000e+000  0.0000000e+000  0.0000000e+000 -4.7874749e-001 -4.7874749e-001 -4.7874749e-001 
 2.0033574e-001 -4.5800567e-001  0.0000000e+000  0.0000000e+000  0.0000000e+000 -4.9042803e-001 -4.9042803e-001 -4.9042803e-001 
 1.8220019e-001 -4.6551764e-001  0.0000000e+000  0.0000000e+000  0.0000000e+000 -5.0254101e-001 -5.0254101e-001 -5.0254101e-001 
 1.6378361e-001 -4.7231191e-001  0.0000000e+000  0.0000000e+000  0.0000000e+000 -5.1493257e-001 -5.1493257e-001 -5.1493257e-001 
 1.4511456e-001 -4.7837785e-001  0.0000000e+000  0.0000000e+000  0.0000000e+000 -5.2745229e-001 -5.2745229e-001 -5.2745229e-001 
 1.2622175e-001 -4.8370618e-001  0.0000000e+000  0.0000000e+000  0.0000000e+000 -5.3990716e-001 -5.3990716e-001 -5.3990716e-001 
 1.0713422e-001 -4.8828876e-001  0.0000000e+000  0.0000000e+000  0.0000000e+000 -5.5206925e-001 -5.5206925e-001 -5.5206925e-001 
 8.7881476e-002 -4.9211836e-001  0.0000000e+000  0.0000000e+000  0.0000000e+000 -5.6370050e-001 -5.6370050e-001 -5.6370050e-001 
 6.8493240e-002 -4.9518913e-001  0.0000000e+000  0.0000000e+000  0.0000000e+000 -5.7451952e-001 -5.7451952e-001 -5.7451952e-001 
 4.8999503e-002 -4.9749640e-001  0.0000000e+000  0.0000000e+000  0.0000000e+000 -5.8421302e-001 -5.8421302e-001 -5.8421302e-001 
 2.9430222e-002 -4.9903655e-001  0.0000000e+000  0.0000000e+000  0.0000000e+000 -5.9246892e-001 -5.9246892e-001 -5.9246892e-001 
 9.8154414e-003 -4.9980724e-001  0.0000000e+000  0.0000000e+000  0.0000000e+000 -5.9899443e-001 -5.9899443e-001 -5.9899443e-001 
-9.8143592e-003 -4.9980724e-001  0.0000000e+000  0.0000000e+000  0.0000000e+000 -6.0351986e-001 -6.0351986e-001 -6.0351986e-001 
-2.9429026e-002 -4.9903661e-001  0.0000000e+000  0.0000000e+000  0.0000000e+000 -6.0582191e-001 -6.0582191e-001 -6.0582191e-001 
-4.8998430e-002 -4.9749649e-001  0.0000000e+000  0.0000000e+000  0.0000000e+000 -6.0567588e-001 -6.0567588e-001 -6.0567588e-001 
-6.8492278e-002 -4.9518931e-001  0.0000000e+000  0.0000000e+000  0.0000000e+000 -6.0282958e-001 -6.0282958e-001 -6.0282958e-001 
-8.7880522e-002 -4.9211854e-001  0.0000000e+000  0.0000000e+000  0.0000000e+000 -5.9707361e-001 -5.9707361e-001 -5.9707361e-001 
-1.0713315e-001 -4.8828900e-001  0.0000000e+000  0.0000000e+000  0.0000000e+000 -5.8823341e-001 -5.8823341e-001 -5.8823341e-001 
-1.2622060e-001 -4.8370653e-001  0.0000000e+000  0.0000000e+000  0.0000000e+000 -5.7617253e-001 -5.7617253e-001 -5.7617253e-001 
-1.4511356e-001 -4.7837821e-001  0.0000000e+000  0.0000000e+000  0.0000000e+000 -5.6079888e-001 -5.6079888e-001 -5.6079888e-001 
-1.6378260e-001 -4.7231230e-001  0.0000000e+000  0.0000000e+000  0.0000000e+000 -5.4208910e-001 -5.4208910e-001 -5.4208910e-001 
-1.8219909e-001 -4.6551815e-001  0.0000000e+000  0.0000000e+000  0.0000000e+000 -5.2008772e-001 -5.2008772e-001 -5.2008772e-001 
-2.0033480e-001 -4.5800614e-001  0.0000000e+000  0.0000000e+000  0.0000000e+000 -4.9469307e-001 -4.9469307e-001 -4.9469307e-001 
-2.1816149e-001 -4.4978797e-001  0.0000000e+000  0.0000000e+000  0.0000000e+000 -4.6597466e-001 -4.6597466e-001 -4.6597466e-001 
-2.3565179e-001 -4.4087631e-001  0.0000000e+000  0.0000000e+000  0.0000000e+000 -4.3404749e-001 -4.3404749e-001 -4.3404749e-001 
-2.5277880e-001 -4.3128473e-001  0.0000000e+000  0.0000000e+000  0.0000000e+000 -3.9909416e-001 -3.9909416e-001 -3.9909416e-001 
-2.6951596e-001 -4.2102826e-001  0.0000000e+000  0.0000000e+000  0.0000000e+000 -3.6126614e-001 -3.6126614e-001 -3.6126614e-001 
-2.8583750e-001 -4.1012260e-001  0.0000000e+000  0.0000000e+000  0.0000000e+000 -3.2070103e-001 -3.2070103e-001 -3.2070103e-001 
-3.0171841e-001 -3.9858454e-001  0.0000000e+000  0.0000000e+000  0.0000000e+000 -2.7685374e-001 -2.7685374e-001 -2.7685374e-001 
-3.1713414e-001 -3.8643187e-001  0.0000000e+000  0.0000000e+000  0.0000000e+000 -2.3228721e-001 -2.3228721e-001 -2.3228721e-001 
-3.3206081e-001 -3.7368333e-001  0.0000000e+000  0.0000000e+000  0.0000000e+000 -1.8632685e-001 -1.8632685e-001 -1.8632685e-001 
-3.4647539e-001 -3.6035874e-001  0.0000000e+000  0.0000000e+000  0.0000000e+000 -1.3838145e-001 -1.3838145e-001 -1.3838145e-001 
-3.6035585e-001 -3.4647846e-001  0.0000000e+000  0.0000000e+000  0.0000000e+000 -8.9284100e-002 -8.9284100e-002 -8.9284100e-002 
-3.7368065e-001 -3.3206391e-001  0.0000000e+000  0.0000000e+000  0.0000000e+000 -3.9527554e-002 -3.9527554e-002 -3.9527554e-002 
-3.8642925e-001 -3.1713736e-001  0.0000000e+000  0.0000000e+000  0.0000000e+000  1.0708199e-002  1.0708199e-002  1.0708199e-002 
-3.9858201e-001 -3.0172181e-001  0.0000000e+000  0.0000000e+000  0.0000000e+000  6.0947843e-002  6.0947843e-002  6.0947843e-002 
-4.1012016e-001 -2.8584099e-001  0.0000000e+000  0.0000000e+000  0.0000000e+000  1.1075269e-001  1.1075269e-001  1.1075269e-001 
-4.2102593e-001 -2.6951951e-001  0.0000000e+000  0.0000000e+000  0.0000000e+000  1.5979022e-001  1.5979022e-001  1.5979022e-001 
-4.3128258e-001 -2.5278240e-001  0.0000000e+000  0.0000000e+000  0.0000000e+000  2.0769601e-001  2.0769601e-001  2.0769601e-001 
-4.4087425e-001 -2.3565550e-001  0.0000000e+000  0.0000000e+000  0.0000000e+000  2.5409430e-001  2.5409430e-001  2.5409430e-001 
-4.4978610e-001 -2.1816531e-001  0.0000000e+000  0.0000000e+000  0.0000000e+000  2.9862016e-001  2.9862016e-001  2.9862016e-001 
-4.5800442e-001 -2.0033869e-001  0.0000000e+000  0.0000000e+000  0.0000000e+000  3.4093124e-001  3.4093124e-001  3.4093124e-001 
-4.6551651e-001 -1.8220320e-001  0.0000000e+000  0.0000000e+000  0.0000000e+000  3.8069451e-001  3.8069451e-001  3.8069451e-001 
-4.7231084e-001 -1.6378674e-001  0.0000000e+000  0.0000000e+000  0.0000000e+000  4.1759777e-001  4.1759777e-001  4.1759777e-001 
